TITLE = "Transport Properties"
VARIABLES = "Temperature", "Viscosity", "Conductivity"
ZONE T="CH4"
I=15000, F=POINT
1.0 0.000016534809 -0.093092308374 
2.0 0.000010300502 -0.072178836877 
3.0 0.000007248976 -0.058634355689 
4.0 0.000005384415 -0.048758667879 
5.0 0.000004119814 -0.041094025677 
6.0 0.000003208174 -0.034908076865 
7.0 0.000002524416 -0.029778836740 
8.0 0.000001997397 -0.025440459188 
9.0 0.000001583265 -0.021714547026 
10.0 0.000001253332 -0.018475598665 
11.0 0.000000987958 -0.015632022589 
12.0 0.000000773200 -0.013114979860 
13.0 0.000000598860 -0.010871469310 
14.0 0.000000457295 -0.008859853407 
15.0 0.000000342659 -0.007046858075 
16.0 0.000000250397 -0.005405499409 
17.0 0.000000176905 -0.003913613570 
18.0 0.000000119298 -0.002552790897 
19.0 0.000000075231 -0.001307587913 
20.0 0.000000042784 -0.000164934665 
21.0 0.000000020369 0.000886317846 
22.0 0.000000006659 0.001855748037 
23.0 0.000000000539 0.002751638329 
24.0 0.000000001066 0.003581192757 
25.0 0.000000007433 0.004350711172 
26.0 0.000000018952 0.005065729992 
27.0 0.000000035029 0.005731136896 
28.0 0.000000055148 0.006351265011 
29.0 0.000000078862 0.006929970818 
30.0 0.000000105781 0.007470699028 
31.0 0.000000135561 0.007976536939 
32.0 0.000000167901 0.008450260247 
33.0 0.000000202534 0.008894371854 
34.0 0.000000239225 0.009311134928 
35.0 0.000000277765 0.009702601178 
36.0 0.000000317965 0.010070635162 
37.0 0.000000359661 0.010416935266 
38.0 0.000000402701 0.010743051880 
39.0 0.000000446953 0.011050403202 
40.0 0.000000492297 0.011340289043 
41.0 0.000000538622 0.011613902904 
42.0 0.000000585832 0.011872342593 
43.0 0.000000633839 0.012116619579 
44.0 0.000000682560 0.012347667259 
45.0 0.000000731925 0.012566348280 
46.0 0.000000781867 0.012773461054 
47.0 0.000000832325 0.012969745544 
48.0 0.000000883244 0.013155888452 
49.0 0.000000934576 0.013332527838 
50.0 0.000000986273 0.013500257282 
51.0 0.000001038295 0.013659629615 
52.0 0.000001090602 0.013811160277 
53.0 0.000001143161 0.013955330353 
54.0 0.000001195938 0.014092589313 
55.0 0.000001248905 0.014223357495 
56.0 0.000001302034 0.014348028356 
57.0 0.000001355300 0.014466970519 
58.0 0.000001408681 0.014580529635 
59.0 0.000001462155 0.014689030079 
60.0 0.000001515703 0.014792776500 
61.0 0.000001569308 0.014892055237 
62.0 0.000001622952 0.014987135615 
63.0 0.000001676621 0.015078271132 
64.0 0.000001730301 0.015165700554 
65.0 0.000001783978 0.015249648910 
66.0 0.000001837641 0.015330328420 
67.0 0.000001891278 0.015407939341 
68.0 0.000001944881 0.015482670753 
69.0 0.000001998438 0.015554701277 
70.0 0.000002051942 0.015624199750 
71.0 0.000002105385 0.015691325837 
72.0 0.000002158760 0.015756230608 
73.0 0.000002212058 0.015819057065 
74.0 0.000002265275 0.015879940638 
75.0 0.000002318405 0.015939009641 
76.0 0.000002371442 0.015996385695 
77.0 0.000002424381 0.016052184127 
78.0 0.000002477218 0.016106514336 
79.0 0.000002529948 0.016159480137 
80.0 0.000002582569 0.016211180082 
81.0 0.000002635076 0.016261707756 
82.0 0.000002687466 0.016311152061 
83.0 0.000002739736 0.016359597471 
84.0 0.000002791884 0.016407124282 
85.0 0.000002843908 0.016453808837 
86.0 0.000002895804 0.016499723739 
87.0 0.000002947571 0.016544938056 
88.0 0.000002999207 0.016589517508 
89.0 0.000003050711 0.016633524639 
90.0 0.000003102081 0.016677018990 
91.0 0.000003153316 0.016720057251 
92.0 0.000003204414 0.016762693408 
93.0 0.000003255375 0.016804978883 
94.0 0.000003306197 0.016846962661 
95.0 0.000003356880 0.016888691416 
96.0 0.000003407423 0.016930209622 
97.0 0.000003457826 0.016971559668 
98.0 0.000003508088 0.017012781954 
99.0 0.000003558208 0.017053914993 
100.0 0.000003608186 0.017094995500 
101.0 0.000003658023 0.017136058479 
102.0 0.000003707718 0.017177137306 
103.0 0.000003757270 0.017218263803 
104.0 0.000003806680 0.017259468317 
105.0 0.000003855948 0.017300779784 
106.0 0.000003905073 0.017342225797 
107.0 0.000003954057 0.017383832666 
108.0 0.000004002898 0.017425625483 
109.0 0.000004051598 0.017467628169 
110.0 0.000004100157 0.017509863534 
111.0 0.000004148574 0.017552353327 
112.0 0.000004196851 0.017595118277 
113.0 0.000004244987 0.017638178149 
114.0 0.000004292983 0.017681551776 
115.0 0.000004340839 0.017725257109 
116.0 0.000004388557 0.017769311251 
117.0 0.000004436136 0.017813730496 
118.0 0.000004483576 0.017858530364 
119.0 0.000004530879 0.017903725634 
120.0 0.000004578045 0.017949330376 
121.0 0.000004625074 0.017995357982 
122.0 0.000004671967 0.018041821196 
123.0 0.000004718725 0.018088732138 
124.0 0.000004765349 0.018136102335 
125.0 0.000004811838 0.018183942743 
126.0 0.000004858193 0.018232263773 
127.0 0.000004904416 0.018281075311 
128.0 0.000004950506 0.018330386744 
129.0 0.000004996465 0.018380206977 
130.0 0.000005042293 0.018430544455 
131.0 0.000005087991 0.018481407181 
132.0 0.000005133559 0.018532802735 
133.0 0.000005178998 0.018584738291 
134.0 0.000005224309 0.018637220635 
135.0 0.000005269493 0.018690256177 
136.0 0.000005314550 0.018743850971 
137.0 0.000005359481 0.018798010725 
138.0 0.000005404286 0.018852740820 
139.0 0.000005448967 0.018908046319 
140.0 0.000005493524 0.018963931980 
141.0 0.000005537958 0.019020402271 
142.0 0.000005582269 0.019077461380 
143.0 0.000005626459 0.019135113227 
144.0 0.000005670527 0.019193361472 
145.0 0.000005714475 0.019252209528 
146.0 0.000005758303 0.019311660573 
147.0 0.000005802013 0.019371717552 
148.0 0.000005845604 0.019432383193 
149.0 0.000005889078 0.019493660015 
150.0 0.000005932435 0.019555550332 
151.0 0.000005975676 0.019618056265 
152.0 0.000006018802 0.019681179748 
153.0 0.000006061812 0.019744922536 
154.0 0.000006104709 0.019809286213 
155.0 0.000006147493 0.019874272195 
156.0 0.000006190164 0.019939881740 
157.0 0.000006232723 0.020006115956 
158.0 0.000006275171 0.020072975802 
159.0 0.000006317509 0.020140462095 
160.0 0.000006359736 0.020208575521 
161.0 0.000006401855 0.020277316632 
162.0 0.000006443865 0.020346685857 
163.0 0.000006485767 0.020416683505 
164.0 0.000006527563 0.020487309770 
165.0 0.000006569251 0.020558564736 
166.0 0.000006610834 0.020630448380 
167.0 0.000006652312 0.020702960577 
168.0 0.000006693686 0.020776101106 
169.0 0.000006734955 0.020849869650 
170.0 0.000006776121 0.020924265801 
171.0 0.000006817185 0.020999289069 
172.0 0.000006858147 0.021074938875 
173.0 0.000006899008 0.021151214566 
174.0 0.000006939768 0.021228115407 
175.0 0.000006980428 0.021305640595 
176.0 0.000007020989 0.021383789252 
177.0 0.000007061451 0.021462560435 
178.0 0.000007101815 0.021541953136 
179.0 0.000007142081 0.021621966285 
180.0 0.000007182250 0.021702598751 
181.0 0.000007222323 0.021783849349 
182.0 0.000007262301 0.021865716836 
183.0 0.000007302183 0.021948199919 
184.0 0.000007341971 0.022031297255 
185.0 0.000007381664 0.022115007450 
186.0 0.000007421265 0.022199329069 
187.0 0.000007460772 0.022284260628 
188.0 0.000007500187 0.022369800605 
189.0 0.000007539511 0.022455947436 
190.0 0.000007578743 0.022542699519 
191.0 0.000007617885 0.022630055215 
192.0 0.000007656937 0.022718012851 
193.0 0.000007695899 0.022806570719 
194.0 0.000007734773 0.022895727080 
195.0 0.000007773558 0.022985480165 
196.0 0.000007812256 0.023075828176 
197.0 0.000007850866 0.023166769286 
198.0 0.000007889389 0.023258301644 
199.0 0.000007927826 0.023350423373 
200.0 0.000007966177 0.023443132571 
201.0 0.000008004443 0.023536427316 
202.0 0.000008042625 0.023630305662 
203.0 0.000008080722 0.023724765645 
204.0 0.000008118736 0.023819805280 
205.0 0.000008156666 0.023915422565 
206.0 0.000008194514 0.024011615480 
207.0 0.000008232279 0.024108381990 
208.0 0.000008269963 0.024205720044 
209.0 0.000008307566 0.024303627576 
210.0 0.000008345087 0.024402102507 
211.0 0.000008382529 0.024501142746 
212.0 0.000008419891 0.024600746189 
213.0 0.000008457173 0.024700910722 
214.0 0.000008494377 0.024801634219 
215.0 0.000008531502 0.024902914545 
216.0 0.000008568549 0.025004749558 
217.0 0.000008605519 0.025107137106 
218.0 0.000008642412 0.025210075028 
219.0 0.000008679228 0.025313561159 
220.0 0.000008715968 0.025417593326 
221.0 0.000008752632 0.025522169349 
222.0 0.000008789221 0.025627287045 
223.0 0.000008825735 0.025732944225 
224.0 0.000008862175 0.025839138696 
225.0 0.000008898541 0.025945868262 
226.0 0.000008934833 0.026053130723 
227.0 0.000008971052 0.026160923875 
228.0 0.000009007199 0.026269245516 
229.0 0.000009043273 0.026378093436 
230.0 0.000009079275 0.026487465429 
231.0 0.000009115206 0.026597359286 
232.0 0.000009151065 0.026707772796 
233.0 0.000009186854 0.026818703749 
234.0 0.000009222573 0.026930149935 
235.0 0.000009258222 0.027042109144 
236.0 0.000009293801 0.027154579168 
237.0 0.000009329311 0.027267557799 
238.0 0.000009364752 0.027381042831 
239.0 0.000009400125 0.027495032058 
240.0 0.000009435430 0.027609523278 
241.0 0.000009470667 0.027724514291 
242.0 0.000009505837 0.027840002899 
243.0 0.000009540940 0.027955986906 
244.0 0.000009575977 0.028072464120 
245.0 0.000009610948 0.028189432354 
246.0 0.000009645852 0.028306889420 
247.0 0.000009680692 0.028424833138 
248.0 0.000009715466 0.028543261331 
249.0 0.000009750175 0.028662171823 
250.0 0.000009784821 0.028781562447 
251.0 0.000009819402 0.028901431037 
252.0 0.000009853919 0.029021775434 
253.0 0.000009888373 0.029142593482 
254.0 0.000009922764 0.029263883031 
255.0 0.000009957093 0.029385641937 
256.0 0.000009991359 0.029507868059 
257.0 0.000010025563 0.029630559264 
258.0 0.000010059705 0.029753713422 
259.0 0.000010093786 0.029877328412 
260.0 0.000010127806 0.030001402117 
261.0 0.000010161765 0.030125932425 
262.0 0.000010195664 0.030250917232 
263.0 0.000010229503 0.030376354439 
264.0 0.000010263282 0.030502241955 
265.0 0.000010297001 0.030628577694 
266.0 0.000010330662 0.030755359576 
267.0 0.000010364263 0.030882585529 
268.0 0.000010397806 0.031010253488 
269.0 0.000010431291 0.031138361393 
270.0 0.000010464718 0.031266907193 
271.0 0.000010498087 0.031395888842 
272.0 0.000010531398 0.031525304302 
273.0 0.000010564653 0.031655151543 
274.0 0.000010597851 0.031785428541 
275.0 0.000010630993 0.031916133279 
276.0 0.000010664078 0.032047263748 
277.0 0.000010697107 0.032178817946 
278.0 0.000010730081 0.032310793879 
279.0 0.000010762999 0.032443189560 
280.0 0.000010795862 0.032576003009 
281.0 0.000010828671 0.032709232254 
282.0 0.000010861425 0.032842875331 
283.0 0.000010894124 0.032976930284 
284.0 0.000010926770 0.033111395162 
285.0 0.000010959362 0.033246268026 
286.0 0.000010991900 0.033381546940 
287.0 0.000011024385 0.033517229979 
288.0 0.000011056818 0.033653315226 
289.0 0.000011089197 0.033789800768 
290.0 0.000011121524 0.033926684705 
291.0 0.000011153799 0.034063965141 
292.0 0.000011186022 0.034201640189 
293.0 0.000011218194 0.034339707971 
294.0 0.000011250314 0.034478166614 
295.0 0.000011282383 0.034617014257 
296.0 0.000011314401 0.034756249043 
297.0 0.000011346368 0.034895869125 
298.0 0.000011378285 0.035035872664 
299.0 0.000011410151 0.035176257828 
300.0 0.000011441968 0.035317022794 
301.0 0.000011473735 0.035458165745 
302.0 0.000011505452 0.035599684874 
303.0 0.000011537120 0.035741578381 
304.0 0.000011568739 0.035883844473 
305.0 0.000011600310 0.036026481368 
306.0 0.000011631831 0.036169487289 
307.0 0.000011663305 0.036312860467 
308.0 0.000011694730 0.036456599143 
309.0 0.000011726108 0.036600701564 
310.0 0.000011757437 0.036745165985 
311.0 0.000011788720 0.036889990670 
312.0 0.000011819955 0.037035173891 
313.0 0.000011851143 0.037180713926 
314.0 0.000011882284 0.037326609062 
315.0 0.000011913379 0.037472857594 
316.0 0.000011944427 0.037619457825 
317.0 0.000011975429 0.037766408066 
318.0 0.000012006386 0.037913706633 
319.0 0.000012037296 0.038061351854 
320.0 0.000012068161 0.038209342063 
321.0 0.000012098981 0.038357675600 
322.0 0.000012129756 0.038506350815 
323.0 0.000012160485 0.038655366065 
324.0 0.000012191170 0.038804719714 
325.0 0.000012221811 0.038954410135 
326.0 0.000012252407 0.039104435708 
327.0 0.000012282959 0.039254794820 
328.0 0.000012313467 0.039405485867 
329.0 0.000012343931 0.039556507250 
330.0 0.000012374352 0.039707857381 
331.0 0.000012404730 0.039859534676 
332.0 0.000012435064 0.040011537562 
333.0 0.000012465356 0.040163864472 
334.0 0.000012495604 0.040316513844 
335.0 0.000012525810 0.040469484128 
336.0 0.000012555974 0.040622773778 
337.0 0.000012586095 0.040776381256 
338.0 0.000012616175 0.040930305032 
339.0 0.000012646213 0.041084543584 
340.0 0.000012676208 0.041239095396 
341.0 0.000012706163 0.041393958960 
342.0 0.000012736076 0.041549132774 
343.0 0.000012765948 0.041704615345 
344.0 0.000012795779 0.041860405185 
345.0 0.000012825569 0.042016500817 
346.0 0.000012855319 0.042172900767 
347.0 0.000012885028 0.042329603569 
348.0 0.000012914697 0.042486607767 
349.0 0.000012944326 0.042643911908 
350.0 0.000012973915 0.042801514550 
351.0 0.000013003465 0.042959414253 
352.0 0.000013032974 0.043117609590 
353.0 0.000013062444 0.043276099135 
354.0 0.000013091875 0.043434881474 
355.0 0.000013121267 0.043593955196 
356.0 0.000013150620 0.043753318899 
357.0 0.000013179935 0.043912971187 
358.0 0.000013209210 0.044072910672 
359.0 0.000013238447 0.044233135971 
360.0 0.000013267646 0.044393645708 
361.0 0.000013296807 0.044554438515 
362.0 0.000013325930 0.044715513030 
363.0 0.000013355015 0.044876867897 
364.0 0.000013384062 0.045038501767 
365.0 0.000013413072 0.045200413298 
366.0 0.000013442044 0.045362601155 
367.0 0.000013470980 0.045525064007 
368.0 0.000013499878 0.045687800532 
369.0 0.000013528739 0.045850809414 
370.0 0.000013557564 0.046014089344 
371.0 0.000013586352 0.046177639016 
372.0 0.000013615103 0.046341457135 
373.0 0.000013643818 0.046505542409 
374.0 0.000013672497 0.046669893554 
375.0 0.000013701140 0.046834509291 
376.0 0.000013729747 0.046999388349 
377.0 0.000013758319 0.047164529462 
378.0 0.000013786855 0.047329931370 
379.0 0.000013815355 0.047495592819 
380.0 0.000013843820 0.047661512563 
381.0 0.000013872250 0.047827689360 
382.0 0.000013900645 0.047994121974 
383.0 0.000013929005 0.048160809177 
384.0 0.000013957330 0.048327749745 
385.0 0.000013985620 0.048494942462 
386.0 0.000014013876 0.048662386115 
387.0 0.000014042098 0.048830079499 
388.0 0.000014070286 0.048998021415 
389.0 0.000014098439 0.049166210670 
390.0 0.000014126558 0.049334646074 
391.0 0.000014154644 0.049503326447 
392.0 0.000014182696 0.049672250612 
393.0 0.000014210714 0.049841417398 
394.0 0.000014238699 0.050010825640 
395.0 0.000014266651 0.050180474179 
396.0 0.000014294569 0.050350361862 
397.0 0.000014322455 0.050520487541 
398.0 0.000014350307 0.050690850073 
399.0 0.000014378127 0.050861448321 
400.0 0.000014405914 0.051032281154 
401.0 0.000014433668 0.051203347446 
402.0 0.000014461390 0.051374646077 
403.0 0.000014489080 0.051546175932 
404.0 0.000014516737 0.051717935901 
405.0 0.000014544363 0.051889924881 
406.0 0.000014571956 0.052062141772 
407.0 0.000014599518 0.052234585481 
408.0 0.000014627048 0.052407254920 
409.0 0.000014654546 0.052580149006 
410.0 0.000014682013 0.052753266661 
411.0 0.000014709449 0.052926606813 
412.0 0.000014736853 0.053100168394 
413.0 0.000014764226 0.053273950343 
414.0 0.000014791568 0.053447951602 
415.0 0.000014818879 0.053622171120 
416.0 0.000014846160 0.053796607850 
417.0 0.000014873409 0.053971260749 
418.0 0.000014900628 0.054146128782 
419.0 0.000014927817 0.054321210917 
420.0 0.000014954976 0.054496506126 
421.0 0.000014982104 0.054672013388 
422.0 0.000015009202 0.054847731686 
423.0 0.000015036270 0.055023660009 
424.0 0.000015063308 0.055199797348 
425.0 0.000015090316 0.055376142701 
426.0 0.000015117295 0.055552695071 
427.0 0.000015144244 0.055729453466 
428.0 0.000015171163 0.055906416896 
429.0 0.000015198053 0.056083584380 
430.0 0.000015224914 0.056260954938 
431.0 0.000015251746 0.056438527597 
432.0 0.000015278549 0.056616301386 
433.0 0.000015305322 0.056794275343 
434.0 0.000015332067 0.056972448506 
435.0 0.000015358783 0.057150819920 
436.0 0.000015385471 0.057329388635 
437.0 0.000015412129 0.057508153704 
438.0 0.000015438760 0.057687114185 
439.0 0.000015465362 0.057866269141 
440.0 0.000015491936 0.058045617640 
441.0 0.000015518481 0.058225158752 
442.0 0.000015544999 0.058404891553 
443.0 0.000015571488 0.058584815125 
444.0 0.000015597950 0.058764928551 
445.0 0.000015624384 0.058945230921 
446.0 0.000015650790 0.059125721328 
447.0 0.000015677169 0.059306398869 
448.0 0.000015703520 0.059487262648 
449.0 0.000015729844 0.059668311769 
450.0 0.000015756141 0.059849545343 
451.0 0.000015782410 0.060030962485 
452.0 0.000015808652 0.060212562314 
453.0 0.000015834868 0.060394343952 
454.0 0.000015861056 0.060576306526 
455.0 0.000015887217 0.060758449168 
456.0 0.000015913352 0.060940771013 
457.0 0.000015939460 0.061123271200 
458.0 0.000015965542 0.061305948872 
459.0 0.000015991597 0.061488803178 
460.0 0.000016017625 0.061671833267 
461.0 0.000016043627 0.061855038296 
462.0 0.000016069604 0.062038417423 
463.0 0.000016095554 0.062221969812 
464.0 0.000016121478 0.062405694631 
465.0 0.000016147376 0.062589591049 
466.0 0.000016173248 0.062773658243 
467.0 0.000016199094 0.062957895390 
468.0 0.000016224915 0.063142301673 
469.0 0.000016250710 0.063326876278 
470.0 0.000016276479 0.063511618396 
471.0 0.000016302223 0.063696527221 
472.0 0.000016327942 0.063881601950 
473.0 0.000016353636 0.064066841784 
474.0 0.000016379304 0.064252245929 
475.0 0.000016404947 0.064437813594 
476.0 0.000016430565 0.064623543990 
477.0 0.000016456158 0.064809436334 
478.0 0.000016481727 0.064995489845 
479.0 0.000016507270 0.065181703747 
480.0 0.000016532789 0.065368077266 
481.0 0.000016558283 0.065554609634 
482.0 0.000016583753 0.065741300083 
483.0 0.000016609198 0.065928147852 
484.0 0.000016634619 0.066115152182 
485.0 0.000016660015 0.066302312316 
486.0 0.000016685388 0.066489627503 
487.0 0.000016710736 0.066677096995 
488.0 0.000016736060 0.066864720046 
489.0 0.000016761360 0.067052495914 
490.0 0.000016786636 0.067240423861 
491.0 0.000016811888 0.067428503153 
492.0 0.000016837117 0.067616733056 
493.0 0.000016862321 0.067805112844 
494.0 0.000016887503 0.067993641792 
495.0 0.000016912660 0.068182319176 
496.0 0.000016937794 0.068371144280 
497.0 0.000016962905 0.068560116388 
498.0 0.000016987992 0.068749234788 
499.0 0.000017013057 0.068938498772 
500.0 0.000017038097 0.069127907634 
501.0 0.000017063115 0.069317460672 
502.0 0.000017088110 0.069507157187 
503.0 0.000017113082 0.069696996483 
504.0 0.000017138031 0.069886977868 
505.0 0.000017162957 0.070077100652 
506.0 0.000017187860 0.070267364147 
507.0 0.000017212741 0.070457767672 
508.0 0.000017237599 0.070648310546 
509.0 0.000017262434 0.070838992091 
510.0 0.000017287247 0.071029811633 
511.0 0.000017312038 0.071220768502 
512.0 0.000017336806 0.071411862028 
513.0 0.000017361552 0.071603091547 
514.0 0.000017386276 0.071794456398 
515.0 0.000017410978 0.071985955919 
516.0 0.000017435657 0.072177589456 
517.0 0.000017460315 0.072369356356 
518.0 0.000017484950 0.072561255966 
519.0 0.000017509564 0.072753287641 
520.0 0.000017534156 0.072945450736 
521.0 0.000017558726 0.073137744608 
522.0 0.000017583275 0.073330168620 
523.0 0.000017607802 0.073522722134 
524.0 0.000017632307 0.073715404519 
525.0 0.000017656791 0.073908215142 
526.0 0.000017681253 0.074101153378 
527.0 0.000017705694 0.074294218601 
528.0 0.000017730114 0.074487410189 
529.0 0.000017754513 0.074680727523 
530.0 0.000017778890 0.074874169986 
531.0 0.000017803246 0.075067736965 
532.0 0.000017827582 0.075261427848 
533.0 0.000017851896 0.075455242027 
534.0 0.000017876189 0.075649178896 
535.0 0.000017900462 0.075843237853 
536.0 0.000017924714 0.076037418296 
537.0 0.000017948944 0.076231719629 
538.0 0.000017973155 0.076426141255 
539.0 0.000017997344 0.076620682583 
